Wavelength,Gray_Value
79.9678,91.7087
80.199,91.7054
80.4302,91.7034
80.6614,91.6214
80.8926,91.55600000000001
81.1238,91.5033
81.355,91.412
81.5862,91.3053
81.8174,91.196
82.0486,91.07929999999999
82.2798,90.9586
82.511,90.8086
82.7422,90.7332
82.9734,90.7012
83.2046,90.5299
83.4358,90.3546
83.667,90.23060000000001
83.8982,90.08200000000001
84.1294,89.9133
84.3606,89.7547
84.5918,89.60940000000001
84.82300000000001,89.4427
85.0542,89.2527
85.2854,89.06269999999999
85.5166,88.82000000000001
85.7478,88.4466
85.979,88.1886
86.2102,88.1359
86.4414,88.04119999999999
86.6726,87.79180000000001
86.9038,87.4971
87.135,87.24780000000001
87.36619999999999,86.9752
87.5974,86.62320000000001
87.8286,86.3232
88.0598,86.19390000000001
88.291,86.05120000000001
88.5222,85.6385
88.7534,85.1199
88.9846,84.80330000000001
89.2158,84.554
89.447,84.28399999999999
89.6782,83.978
89.9094,83.67999999999999
90.1406,83.428
90.37180000000001,83.14129999999999
90.603,82.7573
90.8342,82.3893
91.0654,82.21189999999999
91.2966,81.98190000000001
91.5278,81.68260000000001
91.759,81.37719999999999
91.9902,81.1638
92.2214,81.0025
92.4526,80.78389999999999
92.6838,80.4826
92.91499999999999,80.21000000000001
93.1462,80.0574
93.3774,79.8974
93.6086,79.72200000000001
93.8398,79.6033
94.071,79.42670000000001
94.3022,79.08409999999999
94.5334,78.75880000000001
94.7646,78.4961
94.9958,78.3194
95.227,78.12339999999999
95.4582,77.7814
95.6894,77.3928
95.92060000000001,77.0728
96.1518,76.7715
96.383,76.4288
96.6142,76.19480000000001
96.8454,76.00280000000001
97.0766,75.7635
97.3078,75.3749
97.539,75.1329
97.7702,75.05019999999999
98.0014,74.8202
98.23259999999999,74.39020000000001
98.46379999999999,73.9795
98.695,73.6875
98.9262,73.41279999999999
99.1574,73.1034
99.3886,72.8527
99.6198,72.66130000000001
99.851,72.3306
100.0822,71.98530000000001
100.3134,71.7846
100.5446,71.7053
100.7758,71.55930000000001
101.007,71.3246
101.2382,71.06790000000001
101.46940000000001,70.83059999999999
101.7006,70.5586
101.9318,70.2806
102.163,70.08789999999999
102.3942,69.8212
102.6254,69.5192
102.8566,69.1539
103.0878,68.7999
103.319,68.5839
103.5502,68.3053
103.78139999999999,68.0386
104.01259999999999,67.9539
104.2438,67.9653
104.475,67.7687
104.7062,67.4707
104.9374,67.2807
105.1686,67.26329999999999
105.3998,67.2446
105.631,67.19800000000001
105.8622,67.232
106.0934,67.1914
106.3246,66.9428
106.5558,66.69680000000001
106.787,66.7168
107.01820000000001,66.9175
107.2494,66.9842
107.4806,66.8476
107.7118,66.693
107.943,66.5136
108.1742,66.4316
108.4054,66.5189
108.6366,66.5895
108.8678,66.5155
109.099,66.3355
109.33019999999999,66.1748
109.56139999999999,66.1041
109.7926,66.1687
110.0238,66.2053
110.255,66.2087
110.4862,66.1253
110.7174,65.9826
110.9486,65.89059999999999
111.1798,65.9039
111.411,65.9825
111.6422,65.98179999999999
111.8734,65.95179999999999
112.1046,65.98780000000001
112.3358,66.0845
112.56700000000001,66.1238
112.79820000000001,66.09920000000001
113.0294,66.0919
113.2606,66.2033
113.4918,66.3133
113.723,66.27669999999999
113.9542,66.2027
114.1854,66.1414
114.41659999999999,65.9894
114.64779999999999,65.8341
114.87899999999999,65.8321
115.11019999999999,65.8681
115.3414,65.8801
115.5726,65.7667
115.8038,65.528
116.035,65.4486
116.2662,65.5153
116.4974,65.43660000000001
116.7286,65.27529999999999
116.9598,65.1446
117.191,64.9573
117.4222,64.7913
117.6534,64.5913
117.8846,64.438
118.11580000000001,64.3814
118.34700000000001,64.2581
118.5782,64.0854
118.8094,64.0234
119.0406,64.0121
119.2718,63.971399999999996
119.503,63.949400000000004
119.7342,63.998000000000005
119.96539999999999,64.02199999999999
120.19659999999999,63.97670000000001
120.42779999999999,63.848699999999994
120.65899999999999,63.799400000000006
120.8902,63.7154
121.1214,63.554100000000005
121.3526,63.35809999999999
121.5838,63.201499999999996
121.815,63.026799999999994
122.0462,62.7582
122.2774,62.4415
122.5086,62.27009999999999
122.7398,62.235400000000006
122.971,62.0047
123.2022,61.6601
123.4334,61.4661
123.66460000000001,61.373400000000004
123.89580000000001,61.21070000000001
124.127,61.0347
124.3582,60.908699999999996
124.5894,60.77610000000001
124.8206,60.4701
125.0518,60.0794
125.283,59.79209999999999
125.51419999999999,59.6881
125.74539999999999,59.51610000000001
125.97659999999999,59.2814
126.20779999999999,59.0101
126.439,58.7154
126.6702,58.384
126.9014,58.08059999999999
127.1326,57.768600000000006
127.3638,57.472
127.595,57.16600000000001
127.8262,56.8053
128.0574,56.4159
128.2886,56.0086
128.5198,55.6826
128.751,55.403999999999996
128.9822,55.144000000000005
129.2134,54.896699999999996
129.4446,54.6447
129.67579999999998,54.467999999999996
129.90699999999998,54.35
130.13819999999998,54.124
130.36939999999998,53.81
130.6006,53.5293
130.8318,53.341899999999995
131.063,53.123900000000006
131.2942,52.8359
131.5254,52.5172
131.7566,52.3386
131.9878,52.11659999999999
132.219,51.8186
132.4502,51.5526
132.6814,51.35600000000001
132.9126,51.236000000000004
133.1438,50.9887
133.375,50.708000000000006
133.6062,50.45139999999999
133.8374,50.2594
134.0686,49.996700000000004
134.2998,49.706
134.531,49.408
134.7622,49.14
134.9934,48.853300000000004
135.2246,48.584700000000005
135.4558,48.321400000000004
135.687,48.065400000000004
135.9182,47.8667
136.1494,47.640100000000004
136.38060000000002,47.3561
136.6118,47.0581
136.843,46.8481
137.0742,46.6914
137.3054,46.5407
137.5366,46.2473
137.7678,45.962599999999995
137.999,45.7053
138.2302,45.4186
138.4614,45.1012
138.6926,44.832499999999996
138.9238,44.7079
139.155,44.5019
139.3862,44.2053
139.6174,43.9027
139.8486,43.6794
140.0798,43.5441
140.311,43.4014
140.54219999999998,43.1788
140.77339999999998,42.9528
141.00459999999998,42.772200000000005
141.23579999999998,42.5315
141.46699999999998,42.2961
141.69819999999999,42.0607
141.9294,41.902699999999996
142.1606,41.7074
142.3918,41.3834
142.623,41.076100000000004
142.8542,40.886700000000005
143.0854,40.737399999999994
143.3166,40.507999999999996
143.5478,40.2373
143.779,40.016
144.0102,39.8227
144.2414,39.528
144.4726,39.285999999999994
144.7038,39.0866
144.935,38.8919
145.1662,38.7133
145.3974,38.495999999999995
145.6286,38.308
145.8598,38.0827
146.091,37.7887
146.3222,37.495999999999995
146.5534,37.248000000000005
146.7846,36.9926
147.0158,36.764
147.247,36.527300000000004
147.47820000000002,36.2159
147.70940000000002,35.9952
147.94060000000002,35.8272
148.1718,35.646499999999996
148.403,35.5252
148.6342,35.477199999999996
148.8654,35.4719
149.0966,35.3973
149.3278,35.3726
149.559,35.4
149.7902,35.4247
150.0214,35.3534
150.2526,35.2521
150.4838,35.195499999999996
150.715,35.091499999999996
150.94619999999998,34.917500000000004
151.17739999999998,34.7761
151.40859999999998,34.6681
151.63979999999998,34.4654
151.87099999999998,34.194
152.10219999999998,33.9493
152.33339999999998,33.7593
152.56459999999998,33.6006
152.79579999999999,33.4879
153.027,33.4545
153.2582,33.4505
153.4894,33.3585
153.7206,33.322500000000005
153.9518,33.2305
154.183,33.1519
154.4142,33.0339
154.6454,32.9179
154.8766,32.8759
155.1078,32.835899999999995
155.339,32.6693
155.5702,32.4833
155.8014,32.333999999999996
156.0326,32.1666
156.2638,32.077999999999996
156.495,31.841999999999995
156.7262,31.714
156.9574,31.583299999999998
157.1886,31.313299999999998
157.4198,31.1473
157.651,31.159900000000004
157.8822,31.1906
158.1134,31.168600000000005
158.3446,31.1213
158.57580000000002,31.133300000000002
158.80700000000002,31.268600000000003
159.03820000000002,31.25
159.2694,31.274700000000003
159.5006,31.411400000000004
159.7318,31.393400000000003
159.963,31.2548
160.1942,31.1201
160.4254,31.141399999999997
160.6566,31.1387
160.8878,31.051299999999998
161.119,30.921299999999995
161.3502,30.917899999999996
161.5814,30.822499999999998
161.8126,30.6178
162.04379999999998,30.456499999999995
162.27499999999998,30.3525
162.50619999999998,30.255899999999997
162.73739999999998,30.1293
162.96859999999998,30.053299999999997
163.19979999999998,30.008
163.43099999999998,30.039300000000004
163.66219999999998,30.0593
163.89339999999999,30.1567
164.1246,30.272699999999997
164.3558,30.344000000000005
164.587,30.3673
164.8182,30.469900000000003
165.0494,30.465899999999998
165.2806,30.383900000000004
165.5118,30.3026
165.743,30.259999999999998
165.9742,30.316700000000004
166.2054,30.3053
166.4366,30.1473
166.6678,29.9313
166.899,29.7666
167.1302,29.657999999999998
167.3614,29.6733
167.5926,29.712699999999995
167.8238,29.810699999999997
168.055,29.910000000000004
168.2862,29.791999999999994
168.5174,29.694
168.7486,29.8147
168.9798,30.0614
169.211,30.2661
169.4422,30.282100000000003
169.67340000000002,30.1941
169.90460000000002,30.1167
170.1358,30.025299999999998
170.367,29.936
170.5982,29.881999999999998
170.8294,29.7634
171.0606,29.5781
171.2918,29.3627
171.523,29.1967
171.7542,29.058
171.9854,28.933999999999997
172.2166,28.85
172.4478,28.7914
172.679,28.704699999999995
172.91019999999997,28.6107
173.14139999999998,28.546
173.37259999999998,28.5146
173.60379999999998,28.424599999999998
173.83499999999998,28.2606
174.06619999999998,28.2613
174.29739999999998,28.289299999999997
174.52859999999998,28.239300000000004
174.75979999999998,28.143900000000002
174.99099999999999,28.1772
175.2222,28.305199999999996
175.4534,28.3692
175.6846,28.311200000000003
175.9158,28.4032
176.147,28.505199999999995
176.3782,28.444500000000005
176.6094,28.3992
176.8406,28.4192
177.0718,28.459200000000003
177.303,28.354599999999998
177.5342,28.207900000000002
177.7654,28.2166
177.9966,28.326
178.2278,28.272000000000002
178.459,28.207300000000004
178.6902,28.1866
178.9214,28.1552
179.1526,28.070600000000002
179.3838,27.975299999999997
179.615,27.956599999999998
179.8462,27.9053
180.0774,27.771300000000004
180.3086,27.6673
180.5398,27.6347
180.77100000000002,27.6341
181.00220000000002,27.5921
181.2334,27.5308
181.4646,27.5608
181.6958,27.5688
181.927,27.567500000000003
182.1582,27.621499999999997
182.3894,27.752799999999997
182.6206,27.8334
182.8518,27.889400000000002
183.083,27.954700000000003
183.3142,28.004700000000003
183.5454,28.0394
183.7766,28.014
184.00779999999997,28.063300000000005
184.23899999999998,28.0953
184.47019999999998,28.071999999999996
184.70139999999998,27.977300000000003
184.93259999999998,27.9207
185.16379999999998,27.9507
185.39499999999998,27.9934
185.62619999999998,28.048099999999998
185.85739999999998,28.107400000000002
186.08859999999999,28.176099999999998
186.3198,28.2295
186.551,28.276100000000003
186.7822,28.2994
187.0134,28.3468
187.2446,28.438799999999997
187.4758,28.464100000000002
187.707,28.4214
187.9382,28.411400000000004
188.1694,28.4934
188.4006,28.6047
188.6318,28.619300000000003
188.863,28.6247
189.0942,28.750700000000002
189.3254,28.9553
189.5566,29.038599999999995
189.7878,29.0086
190.019,29.105900000000002
190.2502,29.249899999999997
190.4814,29.219900000000003
190.7126,29.1606
190.9438,29.241299999999995
191.175,29.288599999999995
191.4062,29.2666
191.6374,29.057299999999998
191.86860000000001,29.039300000000004
192.09980000000002,29.241300000000003
192.331,29.264
192.5622,29.302700000000005
192.7934,29.3707
193.0246,29.4534
193.2558,29.4201
193.487,29.4274
193.7182,29.496699999999997
193.9494,29.6967
194.1806,29.7134
194.4118,29.620099999999997
194.643,29.6248
194.8742,29.581399999999995
195.10539999999997,29.6067
195.33659999999998,29.660000000000004
195.56779999999998,29.695300000000003
195.79899999999998,29.6387
196.03019999999998,29.5194
196.26139999999998,29.568699999999996
196.49259999999998,29.6333
196.72379999999998,29.6486
196.95499999999998,29.6846
197.18619999999999,29.737299999999998
197.4174,29.826
197.6486,29.868000000000002
197.8798,29.9287
198.111,30.008699999999997
198.3422,30.093399999999995
198.5734,30.024100000000004
198.8046,29.9815
199.0358,29.978200000000005
199.267,30.103500000000004
199.4982,30.2108
199.7294,30.2428
199.9606,30.232099999999996
200.1918,30.2421
200.423,30.3221
200.6542,30.414099999999998
200.8854,30.494799999999998
201.1166,30.6021
201.3478,30.780099999999997
201.579,30.750799999999998
201.8102,30.718200000000003
202.0414,30.8142
202.2726,31.0062
202.5038,31.0888
202.735,31.0668
202.96620000000001,31.108800000000002
203.1974,31.2021
203.4286,31.2181
203.6598,31.255399999999998
203.891,31.354000000000003
204.1222,31.526599999999995
204.3534,31.6139
204.5846,31.5753
204.8158,31.654700000000002
205.047,31.860699999999998
205.2782,31.968699999999995
205.5094,32.029399999999995
205.7406,32.1321
205.9718,32.1648
206.203,32.206199999999995
206.4342,32.1416
206.6654,32.12499999999999
206.8966,32.197
207.1278,32.213
207.35899999999998,32.1343
207.59019999999998,32.0816
207.82139999999998,32.1309
208.05259999999998,32.1902
208.28379999999999,32.1275
208.515,32.0928
208.7462,32.1494
208.9774,32.07600000000001
209.2086,31.95
209.4398,31.9133
209.671,31.8773
209.9022,31.8173
210.1334,31.686
210.3646,31.5507
210.5958,31.467400000000005
210.827,31.3881
211.0582,31.2555
211.2894,31.192899999999998
211.5206,31.1615
211.7518,31.126800000000003
211.983,31.172800000000002
212.2142,31.200799999999997
212.4454,31.1714
212.6766,31.151400000000002
212.90779999999998,31.193399999999997
213.13899999999998,31.2267
213.37019999999998,31.226
213.60139999999998,31.2306
213.83259999999999,31.182599999999997
214.0638,31.1193
214.295,31.1193
214.5262,31.1606
214.7574,31.27
214.9886,31.356599999999997
215.2198,31.4106
215.451,31.3693
215.6822,31.2993
215.9134,31.3
216.1446,31.389999999999997
216.3758,31.3793
216.607,31.306599999999996
216.8382,31.263299999999997
217.0694,31.199900000000003
217.3006,31.199900000000003
217.5318,31.1752
217.763,31.194499999999998
217.9942,31.194499999999998
218.2254,31.095800000000004
218.45659999999998,31.017200000000003
218.68779999999998,31.038599999999995
218.91899999999998,31.098599999999998
219.15019999999998,31.136600000000005
219.38139999999999,31.106599999999997
219.6126,31.0486
219.8438,30.9839
220.075,30.9892
220.3062,31.1332
220.5374,31.3219
220.7686,31.4412
220.9998,31.596500000000002
221.231,31.627200000000006
221.4622,31.631199999999996
221.6934,31.661900000000003
221.9246,31.732599999999998
222.1558,31.9146
222.387,31.9726
222.6182,31.9839
222.8494,32.0712
223.0806,32.1405
223.3118,32.0938
223.543,32.0911
223.7742,32.120400000000004
224.00539999999998,32.2217
224.23659999999998,32.141000000000005
224.46779999999998,31.972999999999995
224.69899999999998,31.905
224.93019999999999,31.781
225.1614,31.596999999999998
225.3926,31.502999999999997
225.6238,31.451
225.855,31.456400000000002
226.0862,31.413800000000002
226.3174,31.3305
226.5486,31.2759
226.7798,31.3313
227.011,31.3853
227.2422,31.5767
227.4734,31.621400000000005
227.7046,31.5928
227.9358,31.603500000000004
228.167,31.5568
228.3982,31.532799999999998
228.6294,31.565499999999997
228.8606,31.639499999999998
229.0918,31.568800000000003
229.32299999999998,31.5282
229.55419999999998,31.3928
229.78539999999998,31.300099999999997
230.01659999999998,31.2414
230.24779999999998,31.191399999999998
230.47899999999998,31.117400000000004
230.7102,31.084699999999998
230.9414,30.986700000000003
231.1726,30.9047
231.4038,30.975399999999997
231.635,30.9834
231.8662,30.9428
232.0974,30.972199999999997
232.3286,31.0182
232.5598,31.0782
232.791,31.1522
233.0222,31.142200000000003
233.2534,31.1062
233.4846,31.202200000000005
233.7158,31.2502
233.947,31.2502
234.1782,31.248200000000004
234.4094,31.2982
234.6406,31.352899999999998
234.87179999999998,31.367600000000003
235.10299999999998,31.4343
235.33419999999998,31.519
235.56539999999998,31.583
235.79659999999998,31.505000000000003
236.02779999999998,31.353
236.259,31.288999999999998
236.4902,31.276999999999997
236.7214,31.1743
236.9526,31.040900000000004
237.1838,30.988199999999996
237.415,30.929499999999997
237.6462,30.8548
237.8774,30.7694
238.1086,30.785999999999994
238.3398,30.8353
238.571,30.8226
238.8022,30.727899999999998
239.0334,30.7212
239.2646,30.731199999999994
239.4958,30.6312
239.727,30.439200000000007
239.9582,30.2712
240.1894,30.209899999999998
240.42059999999998,30.1786
240.65179999999998,30.075899999999997
240.88299999999998,30.0346
241.11419999999998,29.993900000000004
241.34539999999998,29.9406
241.57659999999998,29.931300000000004
241.8078,29.886000000000003
242.039,29.758699999999997
242.2702,29.666000000000004
242.5014,29.5867
242.7326,29.413999999999998
242.9638,29.276000000000003
243.195,29.116000000000003
243.4262,29.107999999999997
243.6574,29.163999999999998
243.8886,29.0887
244.1198,28.9493
244.351,29.015299999999996
244.5822,29.0447
244.8134,29.0327
245.0446,29.1421
245.2758,29.232799999999997
245.507,29.2421
245.7382,29.156100000000002
245.96939999999998,28.9814
246.20059999999998,28.9327
246.43179999999998,29.080099999999998
246.66299999999998,29.164700000000003
246.89419999999998,29.1873
247.12539999999998,29.177299999999995
247.3566,29.058599999999995
247.5878,28.9986
247.819,28.997899999999998
248.0502,29.0106
248.2814,29.013299999999997
248.5126,28.9046
248.7438,28.7112
248.975,28.6119
249.2062,28.6866
249.4374,28.750600000000002
249.6686,28.7899
249.8998,28.753899999999998
250.131,28.6946
250.3622,28.723899999999997
250.5934,28.759200000000003
250.8246,28.8139
251.0558,28.945299999999996
251.287,28.9946
251.51819999999998,28.9339
251.74939999999998,28.760499999999997
251.98059999999998,28.6445
252.21179999999998,28.6752
252.44299999999998,28.717899999999997
252.67419999999998,28.6459
252.9054,28.631899999999995
253.1366,28.6766
253.3678,28.603200000000005
253.599,28.5459
253.8302,28.5599
254.0614,28.711900000000004
254.2926,28.8139
254.5238,28.7832
254.755,28.734500000000004
254.9862,28.737900000000003
255.2174,28.768600000000003
255.4486,28.727899999999998
255.6798,28.7606
255.911,28.7346
256.1422,28.6233
256.3734,28.566000000000003
256.6046,28.541400000000003
256.83579999999995,28.4874
257.067,28.452099999999994
257.29819999999995,28.362099999999998
257.5294,28.2494
257.76059999999995,28.216699999999996
257.9918,28.111400000000003
258.22299999999996,28.028100000000002
258.4542,28.0928
258.68539999999996,28.085500000000003
258.9166,27.9935
259.14779999999996,27.9395
259.379,28.026799999999998
259.61019999999996,28.157400000000003
259.8414,28.1954
260.07259999999997,28.208099999999995
260.3038,28.3461
260.53499999999997,28.522100000000002
260.7662,28.5841
260.99739999999997,28.7614
261.22860000000003,28.998700000000003
261.4598,29.2934
261.69100000000003,29.432100000000002
261.9222,29.489500000000003
262.15340000000003,29.644899999999996
262.3846,29.851599999999998
262.6158,29.9156
262.847,29.922199999999997
263.0782,29.846799999999995
263.3094,29.6221
263.5406,29.390099999999997
263.7718,29.1541
264.003,28.9741
264.2342,28.903399999999998
264.4654,28.756
264.6966,28.459999999999997
264.9278,28.2853
265.159,28.144
265.3902,28.058
265.6214,27.9267
265.8526,27.8774
266.0838,27.8294
266.315,27.728699999999996
266.5462,27.6207
266.7774,27.4514
267.0086,27.3247
267.2398,27.174
267.471,27.042
267.7022,26.9207
267.9334,26.8387
268.16459999999995,26.6993
268.3958,26.6813
268.62699999999995,26.7646
268.8582,26.795300000000005
269.08939999999996,26.8413
269.3206,26.877299999999998
269.55179999999996,26.8407
269.783,26.711400000000005
270.01419999999996,26.566700000000004
270.2454,26.536700000000003
270.47659999999996,26.460699999999996
270.7078,26.232
270.93899999999996,25.998700000000003
271.1702,25.792
271.40139999999997,25.607999999999997
271.6326,25.4267
271.86379999999997,25.2673
272.095,25.3259
272.3262,25.4679
272.55740000000003,25.5779
272.7886,25.6806
273.01980000000003,25.7626
273.251,25.8839
273.4822,25.938599999999997
273.7134,25.8846
273.9446,25.911899999999996
274.1758,25.959300000000002
274.407,25.8493
274.6382,25.724700000000002
274.8694,25.6034
275.1006,25.500700000000002
275.3318,25.462699999999998
275.563,25.2994
275.7942,25.1834
276.0254,25.2334
276.2566,25.3394
276.4878,25.4527
276.719,25.5327
276.9502,25.594
277.1814,25.6513
277.4126,25.71
277.6438,25.768
277.875,25.8973
278.1062,26.0259
278.3374,26.097199999999997
278.5686,26.073199999999996
