Wavelength,Gray_Value
79.9678,51.90070000000001
80.199,51.720000000000006
80.4302,51.5253
80.6614,51.4233
80.8926,51.39399999999999
81.1238,51.422000000000004
81.355,51.418600000000005
81.5862,51.3732
81.8174,51.4006
82.0486,51.4372
82.2798,51.5145
82.511,51.5958
82.7422,51.667100000000005
82.9734,51.7518
83.2046,51.861799999999995
83.4358,52.0312
83.667,52.1499
83.8982,52.24730000000001
84.1294,52.2879
84.3606,52.1913
84.5918,52.027300000000004
84.82300000000001,51.8953
85.0542,51.763999999999996
85.2854,51.681999999999995
85.5166,51.504
85.7478,51.1906
85.979,50.9113
86.2102,50.6086
86.4414,50.362
86.6726,50.1893
86.9038,50.015299999999996
87.135,49.857299999999995
87.36619999999999,49.67999999999999
87.5974,49.4813
87.8286,49.3606
88.0598,49.1973
88.291,49.0719
88.5222,49.0346
88.7534,48.9186
88.9846,48.7579
89.2158,48.599900000000005
89.447,48.4639
89.6782,48.4872
89.9094,48.5312
90.1406,48.471900000000005
90.37180000000001,48.4426
90.603,48.4273
90.8342,48.333299999999994
91.0654,48.2579
91.2966,48.12329999999999
91.5278,47.945299999999996
91.759,47.7413
91.9902,47.5766
92.2214,47.489999999999995
92.4526,47.378699999999995
92.6838,47.2453
92.91499999999999,47.1673
93.1462,47.1793
93.3774,47.2393
93.6086,47.371300000000005
93.8398,47.4307
94.071,47.396100000000004
94.3022,47.3368
94.5334,47.1841
94.7646,47.0894
94.9958,47.064099999999996
95.227,46.949400000000004
95.4582,46.7094
95.6894,46.3848
95.92060000000001,46.1121
96.1518,46.0327
96.383,46.089299999999994
96.6142,46.068599999999996
96.8454,46.1046
97.0766,46.1059
97.3078,45.8892
97.539,45.603899999999996
97.7702,45.472500000000004
98.0014,45.445100000000004
98.23259999999999,45.5698
98.46379999999999,45.6452
98.695,45.736599999999996
98.9262,45.835300000000004
99.1574,45.7653
99.3886,45.7
99.6198,45.824
99.851,45.976
100.0822,46.263999999999996
100.3134,46.5
100.5446,46.4406
100.7758,46.123200000000004
101.007,45.7045
101.2382,45.401799999999994
101.46940000000001,45.290499999999994
101.7006,45.219800000000006
101.9318,45.1505
102.163,45.0138
102.3942,44.6425
102.6254,44.3345
102.8566,44.155199999999994
103.0878,44.33389999999999
103.319,44.7359
103.5502,45.0766
103.78139999999999,45.273900000000005
104.01259999999999,45.433899999999994
104.2438,45.5452
104.475,45.64659999999999
104.7062,45.6819
104.9374,45.6659
105.1686,45.6086
105.3998,45.295300000000005
105.631,44.7126
105.8622,44.043899999999994
106.0934,43.4552
106.3246,43.0099
106.5558,42.6899
106.787,42.5092
107.01820000000001,42.388600000000004
107.2494,42.230599999999995
107.4806,42.0746
107.7118,42.050599999999996
107.943,42.1306
108.1742,42.2186
108.4054,42.284000000000006
108.6366,42.363299999999995
108.8678,42.4293
109.099,42.371300000000005
109.33019999999999,42.1513
109.56139999999999,42.0087
109.7926,41.906
110.0238,41.7653
110.255,41.640699999999995
110.4862,41.6007
110.7174,41.5853
110.9486,41.4507
111.1798,41.2881
111.411,41.152100000000004
111.6422,41.1601
111.8734,41.1854
112.1046,41.2627
112.3358,41.35
112.56700000000001,41.4393
112.79820000000001,41.5607
113.0294,41.6541
113.2606,41.67809999999999
113.4918,41.7001
113.723,41.790099999999995
113.9542,41.8481
114.1854,41.9054
114.41659999999999,41.9808
114.64779999999999,42.066199999999995
114.87899999999999,42.12349999999999
115.11019999999999,42.032799999999995
115.3414,42.0334
115.5726,42.194
115.8038,42.32860000000001
116.035,42.533300000000004
116.2662,42.79260000000001
116.4974,42.8393
116.7286,42.8293
116.9598,42.7733
117.191,42.740700000000004
117.4222,42.773399999999995
117.6534,42.676100000000005
117.8846,42.5128
118.11580000000001,42.450199999999995
118.34700000000001,42.3442
118.5782,42.15089999999999
118.8094,42.111599999999996
119.0406,42.1049
119.2718,42.1622
119.503,42.1448
119.7342,42.058800000000005
119.96539999999999,41.9895
120.19659999999999,41.852199999999996
120.42779999999999,41.7548
120.65899999999999,41.6634
120.8902,41.5894
121.1214,41.4794
121.3526,41.362100000000005
121.5838,41.2928
121.815,41.284800000000004
122.0462,41.17809999999999
122.2774,41.1481
122.5086,41.2081
122.7398,41.144800000000004
122.971,40.9375
123.2022,40.7488
123.4334,40.7041
123.66460000000001,40.728699999999996
123.89580000000001,40.6813
124.127,40.7127
124.3582,40.943400000000004
124.5894,41.07
124.8206,41.0826
125.0518,41.061899999999994
125.283,41.1472
125.51419999999999,41.285199999999996
125.74539999999999,41.2492
125.97659999999999,41.169200000000004
126.20779999999999,41.1019
126.439,40.9619
126.6702,40.8099
126.9014,40.6906
127.1326,40.585300000000004
127.3638,40.4707
127.595,40.3381
127.8262,40.1928
128.0574,40.0395
128.2886,39.7722
128.5198,39.5535
128.751,39.400099999999995
128.9822,39.2447
129.2134,39.1454
129.4446,39.170100000000005
129.67579999999998,39.2501
129.90699999999998,39.3481
130.13819999999998,39.43470000000001
130.36939999999998,39.5093
130.6006,39.5726
130.8318,39.5326
131.063,39.39
131.2942,39.2234
131.5254,39.06
131.7566,38.8886
131.9878,38.7626
132.219,38.79860000000001
132.4502,38.8653
132.6814,38.95
132.9126,39.0514
133.1438,39.034800000000004
133.375,39.2594
133.6062,39.608
133.8374,40.023399999999995
134.0686,40.3328
134.2998,40.4574
134.531,40.367999999999995
134.7622,40.298700000000004
134.9934,40.301399999999994
135.2246,40.3774
135.4558,40.6554
135.687,40.7301
135.9182,40.790800000000004
136.1494,40.7068
136.38060000000002,40.55479999999999
136.6118,40.6068
136.843,40.720800000000004
137.0742,40.7101
137.3054,40.6794
137.5366,40.5907
137.7678,40.45
137.999,40.356
138.2302,40.230000000000004
138.4614,40.1226
138.6926,40.0412
138.9238,39.9259
139.155,39.7666
139.3862,39.679899999999996
139.6174,39.6352
139.8486,39.6492
140.0798,39.653200000000005
140.311,39.5779
140.54219999999998,39.4906
140.77339999999998,39.44930000000001
141.00459999999998,39.446
141.23579999999998,39.4267
141.46699999999998,39.4934
141.69819999999999,39.525400000000005
141.9294,39.4094
142.1606,39.2814
142.3918,39.2814
142.623,39.2687
142.8542,39.257999999999996
143.0854,39.216699999999996
143.3166,39.1754
143.5478,39.174
143.779,39.2046
144.0102,39.2213
144.2414,39.190000000000005
144.4726,39.243300000000005
144.7038,39.1473
144.935,39.0793
145.1662,38.957300000000004
145.3974,38.859899999999996
145.6286,38.9185
145.8598,38.9839
146.091,38.9193
146.3222,38.8406
146.5534,39.0079
146.7846,38.9799
147.0158,38.9692
147.247,39.0359
147.47820000000002,39.1846
147.70940000000002,39.386
147.94060000000002,39.4354
148.1718,39.464
148.403,39.506600000000006
148.6342,39.5733
148.8654,39.653999999999996
149.0966,39.811400000000006
149.3278,39.958800000000004
149.559,40.1841
149.7902,40.3294
150.0214,40.3527
150.2526,40.402
150.4838,40.346700000000006
150.715,40.4194
150.94619999999998,40.5874
151.17739999999998,40.6934
151.40859999999998,40.8874
151.63979999999998,41.0034
151.87099999999998,41.0574
152.10219999999998,41.0347
152.33339999999998,41.171400000000006
152.56459999999998,41.4641
152.79579999999999,41.8048
153.027,42.0695
153.2582,42.2922
153.4894,42.3589
153.7206,42.3769
153.9518,42.4169
154.183,42.3556
154.4142,42.367
154.6454,42.309
154.8766,42.211
155.1078,42.131
155.339,41.907
155.5702,41.785000000000004
155.8014,41.793
156.0326,41.805
156.2638,41.937
156.495,42.037
156.7262,42.085
156.9574,42.126999999999995
157.1886,42.137
157.4198,42.190999999999995
157.651,42.303000000000004
157.8822,42.271
158.1134,42.18900000000001
158.3446,41.961600000000004
158.57580000000002,41.81419999999999
158.80700000000002,41.9142
159.03820000000002,41.9808
159.2694,42.124100000000006
159.5006,42.0767
159.7318,41.9393
159.963,41.9739
160.1942,42.1405
160.4254,42.3611
160.6566,42.634499999999996
160.8878,42.695899999999995
161.119,42.646499999999996
161.3502,42.6505
161.5814,42.5472
161.8126,42.5406
162.04379999999998,42.513999999999996
162.27499999999998,42.3694
162.50619999999998,42.1294
162.73739999999998,41.849399999999996
162.96859999999998,41.660000000000004
163.19979999999998,41.6066
163.43099999999998,41.3526
163.66219999999998,41.0946
163.89339999999999,40.8986
164.1246,40.790600000000005
164.3558,40.7892
164.587,40.705799999999996
164.8182,40.8172
165.0494,40.8746
165.2806,40.79
165.5118,40.6794
165.743,40.793400000000005
165.9742,41.0334
166.2054,41.208000000000006
166.4366,41.3106
166.6678,41.336600000000004
166.899,41.3746
167.1302,41.313900000000004
167.3614,41.4212
167.5926,41.5818
167.8238,41.760400000000004
168.055,41.862399999999994
168.2862,41.7884
168.5174,41.910399999999996
168.7486,42.0104
168.9798,41.9358
169.211,41.8812
169.4422,41.8112
169.67340000000002,41.709199999999996
169.90460000000002,41.755199999999995
170.1358,41.785199999999996
170.367,41.879900000000006
170.5982,42.1046
170.8294,42.1266
171.0606,42.1026
171.2918,42.252599999999994
171.523,42.5446
171.7542,42.8053
171.9854,42.986000000000004
172.2166,43.012
172.4478,42.982
172.679,42.9193
172.91019999999997,42.9326
173.14139999999998,43.0033
173.37259999999998,43.160000000000004
173.60379999999998,43.351299999999995
173.83499999999998,43.4486
174.06619999999998,43.5226
174.29739999999998,43.6086
174.52859999999998,43.708000000000006
174.75979999999998,43.7734
174.99099999999999,43.7581
175.2222,43.7448
175.4534,43.796099999999996
175.6846,43.8014
175.9158,43.7941
176.147,43.8108
176.3782,43.9434
176.6094,44.164
176.8406,44.363299999999995
177.0718,44.6186
177.303,44.9053
177.5342,45.0146
177.7654,45.1233
177.9966,45.249300000000005
178.2278,45.4019
178.459,45.578500000000005
178.6902,45.596500000000006
178.9214,45.554500000000004
179.1526,45.6358
179.3838,45.725100000000005
179.615,45.741699999999994
179.8462,45.7937
180.0774,45.863
180.3086,45.95700000000001
180.5398,45.843
180.77100000000002,45.629
181.00220000000002,45.515
181.2334,45.393
181.4646,45.419
181.6958,45.397
181.927,45.4144
182.1582,45.4458
182.3894,45.3692
182.6206,45.3206
182.8518,45.4433
183.083,45.566
183.3142,45.7027
183.5454,45.7894
183.7766,45.6948
184.00779999999997,45.6642
184.23899999999998,45.6242
184.47019999999998,45.6082
184.70139999999998,45.6322
184.93259999999998,45.6242
185.16379999999998,45.6515
185.39499999999998,45.7008
185.62619999999998,45.6141
185.85739999999998,45.5274
186.08859999999999,45.448
186.3198,45.4226
186.551,45.443200000000004
186.7822,45.427800000000005
187.0134,45.47240000000001
187.2446,45.437
187.4758,45.340999999999994
187.707,45.361000000000004
187.9382,45.595
188.1694,45.928999999999995
188.4006,46.141000000000005
188.6318,46.159000000000006
188.863,46.2197
189.0942,46.2804
189.3254,46.1964
189.5566,46.1744
189.7878,46.174400000000006
190.019,46.1164
190.2502,45.9418
190.4814,45.7572
190.7126,45.7446
190.9438,45.79
191.175,45.753299999999996
191.4062,45.7706
191.6374,45.82260000000001
191.86860000000001,45.882600000000004
192.09980000000002,46.0126
192.331,46.1546
192.5622,46.243900000000004
192.7934,46.2152
193.0246,46.0925
193.2558,46.1038
193.487,46.13850000000001
193.7182,46.1252
193.9494,46.119899999999994
194.1806,46.1466
194.4118,46.231300000000005
194.643,46.17
194.8742,46.098
195.10539999999997,46.094
195.33659999999998,46.044
195.56779999999998,45.986000000000004
195.79899999999998,46.028
196.03019999999998,46.098
196.26139999999998,46.096000000000004
196.49259999999998,46.03
196.72379999999998,45.872
196.95499999999998,45.812
197.18619999999999,45.730000000000004
197.4174,45.718
197.6486,45.83
197.8798,45.826
198.111,45.798
198.3422,45.739999999999995
198.5734,45.786
198.8046,45.868
199.0358,45.8853
199.267,46.015299999999996
199.4982,46.2646
199.7294,46.3946
199.9606,46.4246
200.1918,46.462599999999995
200.423,46.438599999999994
200.6542,46.5206
200.8854,46.626599999999996
201.1166,46.7386
201.3478,46.7873
201.579,46.6113
201.8102,46.43
202.0414,46.288
202.2726,46.114000000000004
202.5038,45.966
202.735,45.898
202.96620000000001,45.878
203.1974,45.782000000000004
203.4286,45.592
203.6598,45.504000000000005
203.891,45.514
204.1222,45.426
204.3534,45.328
204.5846,45.318
204.8158,45.38
205.047,45.364
205.2782,45.217999999999996
205.5094,45.233999999999995
205.7406,45.260000000000005
205.9718,45.239999999999995
206.203,45.238
206.4342,45.29600000000001
206.6654,45.43
206.8966,45.528
207.1278,45.488
207.35899999999998,45.398
207.59019999999998,45.30800000000001
207.82139999999998,45.158
208.05259999999998,45.162
208.28379999999999,45.178000000000004
208.515,45.2
208.7462,45.228
208.9774,45.184
209.2086,45.166700000000006
209.4398,45.287400000000005
209.671,45.4161
209.9022,45.5188
210.1334,45.5735
210.3646,45.578199999999995
210.5958,45.5629
210.827,45.4856
211.0582,45.460300000000004
211.2894,45.463
211.5206,45.431
211.7518,45.289
211.983,45.1403
212.2142,45.107600000000005
212.4454,45.068200000000004
212.6766,44.9288
212.90779999999998,45.0454
213.13899999999998,45.206
213.37019999999998,45.188599999999994
213.60139999999998,45.0792
213.83259999999999,45.0252
214.0638,45.1712
214.295,45.3912
214.5262,45.3772
214.7574,45.3039
214.9886,45.3306
215.2198,45.149300000000004
215.451,44.984
215.6822,44.922700000000006
215.9134,44.937400000000004
216.1446,44.920700000000004
216.3758,44.794
216.607,44.79600000000001
216.8382,44.854
217.0694,44.868
217.3006,44.88
217.5318,44.926
217.763,44.962
217.9942,45.004000000000005
218.2254,45.16
218.45659999999998,45.462
218.68779999999998,45.604
218.91899999999998,45.444
219.15019999999998,45.324
219.38139999999999,45.298
219.6126,45.2827
219.8438,45.26
220.075,45.2687
220.3062,45.378
220.5374,45.3573
220.7686,45.120599999999996
220.9998,45.005900000000004
221.231,45.0339
221.4622,45.03920000000001
221.6934,44.9699
221.9246,44.9025
222.1558,44.839200000000005
222.387,44.7245
222.6182,44.6285
222.8494,44.6245
223.0806,44.5645
223.3118,44.5125
223.543,44.5858
223.7742,44.7198
224.00539999999998,44.83239999999999
224.23659999999998,44.886399999999995
224.46779999999998,44.9577
224.69899999999998,45.175
224.93019999999999,45.275
225.1614,45.184999999999995
225.3926,45.149
225.6238,45.169
225.855,45.0717
226.0862,44.900400000000005
226.3174,44.8964
226.5486,45.0464
226.7798,45.1604
227.011,45.162400000000005
227.2422,45.0984
227.4734,45.0171
227.7046,45.0811
227.9358,45.0838
228.167,45.0098
228.3982,45.053799999999995
228.6294,45.13250000000001
228.8606,45.1332
229.0918,45.0939
229.32299999999998,45.0586
229.55419999999998,45.0766
229.78539999999998,45.2613
230.01659999999998,45.4153
230.24779999999998,45.604
230.47899999999998,45.8127
230.7102,45.998000000000005
230.9414,46.05329999999999
231.1726,46.0133
231.4038,45.9713
231.635,45.871300000000005
231.8662,45.766
232.0974,45.724000000000004
232.3286,45.639399999999995
232.5598,45.4927
232.791,45.412699999999994
233.0222,45.3981
233.2534,45.3755
233.4846,45.3082
233.7158,45.2649
233.947,45.331599999999995
234.1782,45.4223
234.4094,45.4683
234.6406,45.5443
234.87179999999998,45.609
235.10299999999998,45.53699999999999
235.33419999999998,45.400999999999996
235.56539999999998,45.313
235.79659999999998,45.295
236.02779999999998,45.208999999999996
236.259,45.063
236.4902,44.909
236.7214,44.687
236.9526,44.5616
237.1838,44.4996
237.415,44.5709
237.6462,44.6382
237.8774,44.6642
238.1086,44.706199999999995
238.3398,44.826800000000006
238.571,44.9834
238.8022,45.1827
239.0334,45.456
239.2646,45.562
239.4958,45.5726
239.727,45.562599999999996
239.9582,45.5966
240.1894,45.6759
240.42059999999998,45.7592
240.65179999999998,45.811899999999994
240.88299999999998,45.7406
241.11419999999998,45.5519
241.34539999999998,45.3052
241.57659999999998,45.163199999999996
241.8078,45.2232
242.039,45.3172
242.2702,45.3172
242.5014,45.103899999999996
242.7326,44.942600000000006
242.9638,44.8433
243.195,44.882
243.4262,45.0214
243.6574,45.1968
243.8886,45.2528
244.1198,45.1108
244.351,44.7861
244.5822,44.5021
244.8134,44.4027
245.0446,44.333299999999994
245.2758,44.2866
245.507,44.2379
245.7382,44.1565
245.96939999999998,44.037099999999995
246.20059999999998,43.949799999999996
246.43179999999998,43.9045
246.66299999999998,44.0292
246.89419999999998,44.197199999999995
247.12539999999998,44.3432
247.3566,44.4692
247.5878,44.5712
247.819,44.569900000000004
248.0502,44.4919
248.2814,44.4153
248.5126,44.34400000000001
248.7438,44.2847
248.975,44.2007
249.2062,44.1327
249.4374,44.1381
249.6686,44.127500000000005
249.8998,44.1102
250.131,44.0582
250.3622,44.0929
250.5934,44.2822
250.8246,44.5128
251.0558,44.731399999999994
251.287,44.9067
251.51819999999998,45.041399999999996
251.74939999999998,44.9094
251.98059999999998,44.749399999999994
252.21179999999998,44.6134
252.44299999999998,44.5794
252.67419999999998,44.505399999999995
252.9054,44.367399999999996
253.1366,44.2274
253.3678,44.0214
253.599,43.891400000000004
253.8302,43.694
254.0614,43.714
254.2926,43.858
254.5238,44.053999999999995
254.755,44.162
254.9862,44.1747
255.2174,44.1374
255.4486,44.0921
255.6798,44.1608
255.911,44.1975
256.1422,44.288199999999996
256.3734,44.3835
256.6046,44.3708
256.83579999999995,44.2721
257.067,44.2534
257.29819999999995,44.4207
257.5294,44.456
257.76059999999995,44.40599999999999
257.9918,44.4
258.22299999999996,44.4113
258.4542,44.312599999999996
258.68539999999996,44.2119
258.9166,44.2452
259.14779999999996,44.2432
259.379,44.2572
259.61019999999996,44.1412
259.8414,44.1032
260.07259999999997,44.2272
260.3038,44.3792
260.53499999999997,44.4679
260.7662,44.5946
260.99739999999997,44.7213
261.22860000000003,44.547999999999995
261.4598,44.398
261.69100000000003,44.308
261.9222,44.2933
262.15340000000003,44.3366
262.3846,44.2926
262.6158,44.0566
262.847,43.9239
263.0782,43.8872
263.3094,43.8705
263.5406,43.9958
263.7718,44.0878
264.003,44.0618
264.2342,43.9992
264.4654,43.9026
264.6966,43.736599999999996
264.9278,43.690599999999996
265.159,43.7273
265.3902,43.9
265.6214,43.8834
265.8526,43.7488
266.0838,43.735499999999995
266.315,43.6562
266.5462,43.5702
266.7774,43.602199999999996
267.0086,43.8029
267.2398,44.0016
267.471,43.9149
267.7022,43.6182
267.9334,43.4968
268.16459999999995,43.355399999999996
268.3958,43.29600000000001
268.62699999999995,43.312599999999996
268.8582,43.3632
269.08939999999996,43.3438
269.3206,43.1984
269.55179999999996,42.987
269.783,42.949
270.01419999999996,43.023
270.2454,43.079699999999995
270.47659999999996,43.2164
270.7078,43.1351
270.93899999999996,43.0638
271.1702,42.9965
271.40139999999997,42.9632
271.6326,42.9799
271.86379999999997,42.9786
272.095,43.0013
272.3262,42.962
272.55740000000003,42.812
272.7886,42.81
273.01980000000003,42.891999999999996
273.251,42.922
273.4822,43.006
273.7134,42.992000000000004
273.9446,43.01
274.1758,43.06
274.407,43.068
274.6382,43.002
274.8694,42.952000000000005
275.1006,42.954
275.3318,43.08
275.563,43.220000000000006
275.7942,43.23800000000001
276.0254,43.274
276.2566,43.24400000000001
276.4878,43.251999999999995
276.719,43.303999999999995
276.9502,43.459999999999994
277.1814,43.704
277.4126,43.751999999999995
277.6438,43.6973
277.875,43.6626
278.1062,43.6719
278.3374,43.681200000000004
278.5686,43.7205
278.7998,43.8598
279.03099999999995,44.0131
279.2622,44.104400000000005
279.49339999999995,44.1917
279.7246,44.325
279.95579999999995,44.417
280.187,44.539
280.41819999999996,44.608999999999995
280.6494,44.644999999999996
280.88059999999996,44.653
281.1118,44.565
281.34299999999996,44.4337
281.5742,44.3304
281.80539999999996,44.2031
282.0366,44.1398
282.26779999999997,44.2005
282.499,44.327200000000005
282.73019999999997,44.3519
282.9614,44.2506
283.19259999999997,44.1973
283.4238,44.2
283.655,44.192
283.88620000000003,44.257999999999996
284.1174,44.374
284.34860000000003,44.464
284.5798,44.448
284.811,44.25
285.0422,44.218
285.2734,44.306
285.5046,44.372
285.7358,44.438
285.967,44.506
286.1982,44.522000000000006
286.4294,44.498000000000005
286.6606,44.37
286.8918,44.208
287.123,44.208
287.3542,44.18
287.5854,44.16199999999999
287.8166,44.137299999999996
288.0478,44.04260000000001
288.279,43.869899999999994
288.5102,43.6592
288.7414,43.57190000000001
288.9726,43.6206
289.2038,43.6573
289.435,43.552
289.6662,43.436
289.89739999999995,43.408
290.1286,43.402699999999996
290.35979999999995,43.3834
290.591,43.392100000000006
