Wavelength,Gray_Value
79.9678,87.26
80.199,86.80539999999999
80.4302,86.45479999999999
80.6614,86.2201
80.8926,85.9914
81.1238,85.7081
81.355,85.4368
81.5862,85.4948
81.8174,85.4688
82.0486,85.2902
82.2798,85.1156
82.511,85.0336
82.7422,85.01160000000002
82.9734,84.9389
83.2046,84.77020000000002
83.4358,84.6742
83.667,84.62819999999999
83.8982,84.2935
84.1294,84.0588
84.3606,83.8808
84.5918,83.6048
84.82300000000001,83.2101
85.0542,82.80539999999999
85.2854,82.4641
85.5166,82.23679999999999
85.7478,81.9701
85.979,81.6774
86.2102,81.46470000000001
86.4414,81.282
86.6726,81.0846
86.9038,80.9392
87.135,80.8305
87.36619999999999,80.6618
87.5974,80.4051
87.8286,80.16839999999999
88.0598,80.0237
88.291,79.821
88.5222,79.475
88.7534,79.123
88.9846,78.9157
89.2158,78.75710000000001
89.447,78.6265
89.6782,78.4499
89.9094,78.3053
90.1406,78.2167
90.37180000000001,78.06809999999999
90.603,77.8515
90.8342,77.7629
91.0654,77.5923
91.2966,77.30699999999999
91.5278,77.039
91.759,76.70500000000001
91.9902,76.34700000000001
92.2214,75.98299999999999
92.4526,75.537
92.6838,75.1143
92.91499999999999,74.7376
93.1462,74.3389
93.3774,74.1182
93.6086,73.9295
93.8398,73.6108
94.071,73.2841
94.3022,73.0534
94.5334,72.87870000000001
94.7646,72.636
94.9958,72.388
95.227,72.2
95.4582,71.91199999999999
95.6894,71.60799999999999
95.92060000000001,71.352
96.1518,71.09729999999999
96.383,70.87259999999999
96.6142,70.6593
96.8454,70.4693
97.0766,70.3293
97.3078,70.1026
97.539,69.9559
97.7702,69.8899
98.0014,69.5839
98.23259999999999,69.2346
98.46379999999999,69.024
98.695,68.8114
98.9262,68.4654
99.1574,68.0901
99.3886,67.78880000000001
99.6198,67.5282
99.851,67.1689
100.0822,66.8462
100.3134,66.6742
100.5446,66.5315
100.7758,66.26480000000001
101.007,65.91810000000001
101.2382,65.79740000000001
101.46940000000001,65.7287
101.7006,65.488
101.9318,65.17530000000001
102.163,65.0193
102.3942,64.8707
102.6254,64.64939999999999
102.8566,64.34670000000001
103.0878,64.19
103.319,64.15799999999999
103.5502,63.921299999999995
103.78139999999999,63.626
104.01259999999999,63.4833
104.2438,63.376
104.475,63.1607
104.7062,62.9747
104.9374,62.8267
105.1686,62.6274
105.3998,62.344100000000005
105.631,62.1681
105.8622,62.0188
106.0934,61.85080000000001
106.3246,61.6922
106.5558,61.61619999999999
106.787,61.548199999999994
107.01820000000001,61.4182
107.2494,61.328199999999995
107.4806,61.3729
107.7118,61.4116
107.943,61.32090000000001
108.1742,61.3162
108.4054,61.3895
108.6366,61.40079999999999
108.8678,61.3394
109.099,61.25
109.33019999999999,61.29729999999999
109.56139999999999,61.2946
109.7926,61.1672
110.0238,61.0678
110.255,61.0372
110.4862,60.952600000000004
110.7174,60.7966
110.9486,60.7306
111.1798,60.7533
111.411,60.77600000000001
111.6422,60.70730000000001
111.8734,60.71660000000001
112.1046,60.756600000000006
112.3358,60.802600000000005
112.56700000000001,60.809900000000006
112.79820000000001,60.81919999999999
113.0294,60.8572
113.2606,60.8852
113.4918,60.8892
113.723,60.8932
113.9542,60.853199999999994
114.1854,60.81519999999999
114.41659999999999,60.829899999999995
114.64779999999999,60.812599999999996
114.87899999999999,60.79729999999999
115.11019999999999,60.762000000000015
115.3414,60.740700000000004
115.5726,60.69540000000001
115.8038,60.6121
116.035,60.5868
116.2662,60.562200000000004
116.4974,60.40560000000001
116.7286,60.310900000000004
116.9598,60.1862
117.191,59.99679999999999
117.4222,59.89939999999999
117.6534,59.812
117.8846,59.61659999999999
118.11580000000001,59.36319999999999
118.34700000000001,59.0932
118.5782,59.071799999999996
118.8094,59.0318
119.0406,58.8458
119.2718,58.7818
119.503,58.875800000000005
119.7342,58.939800000000005
119.96539999999999,58.88719999999999
120.19659999999999,58.83720000000001
120.42779999999999,58.927200000000006
120.65899999999999,58.9765
120.8902,58.75450000000001
121.1214,58.62510000000001
121.3526,58.5511
121.5838,58.3691
121.815,58.054500000000004
122.0462,57.7525
122.2774,57.5345
122.5086,57.2952
122.7398,56.983900000000006
122.971,56.6619
123.2022,56.3066
123.4334,56.0013
123.66460000000001,55.7587
123.89580000000001,55.5081
124.127,55.2214
124.3582,54.8721
124.5894,54.5327
124.8206,54.33
125.0518,54.11129999999999
125.283,53.9086
125.51419999999999,53.764599999999994
125.74539999999999,53.5706
125.97659999999999,53.36659999999999
126.20779999999999,53.202600000000004
126.439,53.0653
126.6702,52.94199999999999
126.9014,52.7894
127.1326,52.636799999999994
127.3638,52.5068
127.595,52.3688
127.8262,52.2321
128.0574,52.045399999999994
128.2886,51.8087
128.5198,51.6253
128.751,51.482600000000005
128.9822,51.30120000000001
129.2134,51.036500000000004
129.4446,50.715799999999994
129.67579999999998,50.528499999999994
129.90699999999998,50.3272
130.13819999999998,50.097899999999996
130.36939999999998,49.8866
130.6006,49.5886
130.8318,49.2453
131.063,48.8693
131.2942,48.444
131.5254,48.12
131.7566,47.732
131.9878,47.216
132.219,46.872
132.4502,46.616
132.6814,46.33
132.9126,46.10600000000001
133.1438,45.9627
133.375,45.8694
133.6062,45.898700000000005
133.8374,45.84740000000001
134.0686,45.820100000000004
134.2998,45.826100000000004
134.531,45.7061
134.7622,45.4828
134.9934,45.3375
135.2246,45.2175
135.4558,45.0008
135.687,44.738099999999996
135.9182,44.4548
136.1494,44.2568
136.38060000000002,44.088800000000006
136.6118,43.8301
136.843,43.549400000000006
137.0742,43.28
137.3054,43.0706
137.5366,42.8833
137.7678,42.708000000000006
137.999,42.584700000000005
138.2302,42.4934
138.4614,42.3494
138.6926,42.1434
138.9238,42.0821
139.155,41.9768
139.3862,41.8695
139.6174,41.6902
139.8486,41.429500000000004
140.0798,41.1308
140.311,40.7688
140.54219999999998,40.3214
140.77339999999998,39.8807
141.00459999999998,39.533300000000004
141.23579999999998,39.131299999999996
141.46699999999998,38.7293
141.69819999999999,38.289300000000004
141.9294,37.9653
142.1606,37.733999999999995
142.3918,37.384699999999995
142.623,36.9527
142.8542,36.7361
143.0854,36.5841
143.3166,36.300799999999995
143.5478,35.905499999999996
143.779,35.6142
144.0102,35.4209
144.2414,35.069599999999994
144.4726,34.7436
144.7038,34.5516
144.935,34.5236
145.1662,34.337599999999995
145.3974,34.04430000000001
145.6286,33.927
145.8598,33.985600000000005
146.091,33.9582
146.3222,33.8808
146.5534,33.8694
146.7846,33.8187
147.0158,33.842
147.247,33.8513
147.47820000000002,33.864599999999996
147.70940000000002,33.9319
147.94060000000002,33.953199999999995
148.1718,33.9132
148.403,33.903200000000005
148.6342,33.9212
148.8654,33.943200000000004
149.0966,33.9365
149.3278,33.8058
149.559,33.6031
149.7902,33.428399999999996
150.0214,33.2597
150.2526,33.007
150.4838,32.665
150.715,32.352999999999994
150.94619999999998,32.087
151.17739999999998,31.826999999999998
151.40859999999998,31.550999999999995
151.63979999999998,31.308999999999997
151.87099999999998,31.223699999999997
152.10219999999998,31.1464
152.33339999999998,31.074399999999997
152.56459999999998,31.016399999999997
152.79579999999999,30.9704
153.027,30.980399999999996
153.2582,30.9558
153.4894,30.825200000000002
153.7206,30.730600000000003
153.9518,30.68
154.183,30.514699999999998
154.4142,30.3334
154.6454,30.156799999999997
154.8766,30.0822
155.1078,30.0796
155.339,30.025
155.5702,29.9123
155.8014,29.8536
156.0326,29.834899999999998
156.2638,29.836199999999998
156.495,29.7788
156.7262,29.6954
156.9574,29.652700000000003
157.1886,29.576
157.4198,29.503300000000003
157.651,29.3786
157.8822,29.3159
158.1134,29.3572
158.3446,29.3899
158.57580000000002,29.430600000000005
158.80700000000002,29.534
159.03820000000002,29.641399999999997
159.2694,29.758099999999995
159.5006,29.888800000000003
159.7318,29.9495
159.963,29.948200000000003
160.1942,29.848900000000004
160.4254,29.6356
160.6566,29.304899999999996
160.8878,28.8702
161.119,28.3995
161.3502,27.888799999999996
161.5814,27.2808
161.8126,26.655400000000004
162.04379999999998,26.0774
162.27499999999998,25.5947
162.50619999999998,25.1967
162.73739999999998,24.8734
162.96859999999998,24.7427
163.19979999999998,24.664
163.43099999999998,24.6793
163.66219999999998,24.8186
163.89339999999999,25.0332
164.1246,25.3032
164.3558,25.5738
164.587,25.8011
164.8182,26.077800000000003
165.0494,26.343799999999998
165.2806,26.4812
165.5118,26.598599999999998
165.743,26.636000000000003
165.9742,26.655400000000004
166.2054,26.688800000000004
166.4366,26.662200000000002
166.6678,26.6736
166.899,26.703000000000003
167.1302,26.709600000000002
167.3614,26.706200000000003
167.5926,26.728199999999998
167.8238,26.8122
168.055,26.9428
168.2862,26.973399999999998
168.5174,26.967399999999998
168.7486,26.9714
168.9798,26.925400000000003
169.211,26.869400000000002
169.4422,26.7808
169.67340000000002,26.7442
169.90460000000002,26.7615
170.1358,26.782100000000003
170.367,26.839500000000005
170.5982,26.9729
170.8294,27.154899999999998
171.0606,27.324899999999996
171.2918,27.4615
171.523,27.6601
171.7542,27.8647
171.9854,27.973300000000002
172.2166,27.975299999999997
172.4478,27.992
172.679,27.9706
172.91019999999997,27.9152
173.14139999999998,27.807799999999997
173.37259999999998,27.7144
173.60379999999998,27.655099999999997
173.83499999999998,27.533799999999996
174.06619999999998,27.496500000000005
174.29739999999998,27.4832
174.52859999999998,27.5705
174.75979999999998,27.6278
174.99099999999999,27.5952
175.2222,27.608600000000003
175.4534,27.665999999999997
175.6846,27.629399999999997
175.9158,27.5694
176.147,27.5694
176.3782,27.558100000000003
176.6094,27.6008
176.8406,27.5442
177.0718,27.474200000000003
177.303,27.4808
177.5342,27.414800000000003
177.7654,27.2688
177.9966,27.140800000000002
178.2278,27.026099999999996
178.459,26.9394
178.6902,26.8174
178.9214,26.679399999999998
179.1526,26.6307
179.3838,26.631400000000003
179.615,26.7021
179.8462,26.7634
180.0774,26.8334
180.3086,27.0074
180.5398,27.1988
180.77100000000002,27.3402
181.00220000000002,27.412799999999997
181.2334,27.434800000000003
181.4646,27.494100000000003
181.6958,27.522100000000002
181.927,27.520799999999998
182.1582,27.515500000000003
182.3894,27.4901
182.6206,27.4447
182.8518,27.401999999999997
183.083,27.265300000000003
183.3142,27.186
183.5454,27.0993
183.7766,26.928700000000003
184.00779999999997,26.8154
184.23899999999998,26.732
184.47019999999998,26.7246
184.70139999999998,26.7866
184.93259999999998,26.856
185.16379999999998,26.996699999999997
185.39499999999998,27.2414
185.62619999999998,27.425399999999996
185.85739999999998,27.629399999999997
186.08859999999999,27.8547
186.3198,28.046
186.551,28.119400000000002
186.7822,28.0908
187.0134,28.1322
187.2446,28.224200000000003
187.4758,28.2495
187.707,28.206799999999998
187.9382,28.196800000000003
188.1694,28.2788
188.4006,28.3901
188.6318,28.429400000000005
188.863,28.486700000000003
189.0942,28.609999999999996
189.3254,28.635299999999994
189.5566,28.556599999999996
189.7878,28.465300000000003
190.019,28.424
190.2502,28.3827
190.4814,28.273400000000002
190.7126,28.214100000000002
190.9438,28.184800000000003
191.175,28.2688
191.4062,28.3448
191.6374,28.320800000000002
191.86860000000001,28.464799999999997
192.09980000000002,28.7281
192.331,28.851399999999995
192.5622,28.968700000000002
192.7934,29.115999999999996
193.0246,29.198700000000002
193.2558,29.2754
193.487,29.2827
193.7182,29.352000000000004
193.9494,29.552
194.1806,29.558000000000003
194.4118,29.4207
194.643,29.436
194.8742,29.499299999999998
195.10539999999997,29.500600000000002
195.33659999999998,29.4026
195.56779999999998,29.359199999999998
195.79899999999998,29.302599999999995
196.03019999999998,29.091999999999995
196.26139999999998,28.877299999999998
196.49259999999998,28.802599999999995
196.72379999999998,28.756600000000002
196.95499999999998,28.636000000000003
197.18619999999999,28.4454
197.4174,28.3048
197.6486,28.2194
197.8798,28.0714
198.111,27.863999999999997
198.3422,27.864600000000003
198.5734,27.854599999999998
198.8046,27.7506
199.0358,27.707900000000002
199.267,27.7832
199.4982,27.907799999999998
199.7294,28.040399999999998
199.9606,28.1998
200.1918,28.4632
200.423,28.830599999999997
200.6542,29.041999999999994
200.8854,29.256700000000002
201.1166,29.575400000000002
201.3478,29.8981
201.579,30.102800000000002
201.8102,30.265499999999996
202.0414,30.5142
202.2726,30.8148
202.5038,30.931400000000004
202.735,30.909400000000005
202.96620000000001,31.0074
203.1974,31.1714
203.4286,31.187400000000004
203.6598,31.157999999999998
203.891,31.2566
204.1222,31.459900000000005
204.3534,31.547199999999997
204.5846,31.5086
204.8158,31.588
205.047,31.793999999999993
205.2782,31.901999999999997
205.5094,31.9627
205.7406,32.0654
205.9718,32.1648
206.203,32.2062
206.4342,32.1416
206.6654,32.12499999999999
206.8966,32.197
207.1278,32.213
207.35899999999998,32.1343
207.59019999999998,32.0816
207.82139999999998,32.1309
208.05259999999998,32.1902
208.28379999999999,32.1275
208.515,32.0928
208.7462,32.1494
208.9774,32.07600000000001
209.2086,31.9293
209.4398,31.892599999999998
209.671,31.856600000000004
209.9022,31.7966
210.1334,31.665300000000002
210.3646,31.53
210.5958,31.4467
210.827,31.357400000000002
211.0582,31.2248
211.2894,31.162199999999995
211.5206,31.1515
211.7518,31.1168
211.983,31.162799999999997
212.2142,31.190799999999996
212.4454,31.114799999999995
212.6766,31.046799999999998
212.90779999999998,31.062100000000004
213.13899999999998,31.0974
213.37019999999998,31.0674
213.60139999999998,30.9914
213.83259999999999,30.943399999999997
214.0638,30.873399999999997
214.295,30.7534
214.5262,30.663400000000003
214.7574,30.723400000000005
214.9886,30.693400000000004
215.2198,30.536699999999996
215.451,30.282
215.6822,30.027300000000004
215.9134,29.7306
216.1446,29.328000000000003
216.3758,28.8774
216.607,28.4694
216.8382,28.139400000000002
217.0694,27.792
217.3006,27.5606
217.5318,27.49
217.763,27.607400000000002
217.9942,27.818099999999998
218.2254,28.0508
218.45659999999998,28.4634
218.68779999999998,28.873999999999995
218.91899999999998,29.195999999999998
219.15019999999998,29.496000000000002
219.38139999999999,29.8387
219.6126,30.155400000000004
219.8438,30.360000000000003
220.075,30.4886
220.3062,30.6359
220.5374,30.871199999999998
220.7686,30.991899999999998
220.9998,31.150600000000004
221.231,31.374600000000004
221.4622,31.5346
221.6934,31.5726
221.9246,31.664599999999997
222.1558,31.860599999999998
222.387,31.918599999999998
222.6182,31.929899999999996
222.8494,32.017199999999995
223.0806,32.0865
223.3118,32.0938
223.543,32.0911
223.7742,32.1204
224.00539999999998,32.2217
224.23659999999998,32.141000000000005
224.46779999999998,31.972999999999995
224.69899999999998,31.905
224.93019999999999,31.781
225.1614,31.573
225.3926,31.387
225.6238,31.191000000000003
225.855,31.1964
226.0862,31.1538
226.3174,30.9632
226.5486,30.9086
226.7798,30.964000000000006
227.011,30.9574
227.2422,30.934800000000003
227.4734,30.968199999999996
227.7046,31.031599999999997
227.9358,31.108999999999998
228.167,30.958999999999996
228.3982,30.935000000000002
228.6294,31.075
228.8606,31.148999999999994
229.0918,31.076999999999998
229.32299999999998,31.096999999999998
229.55419999999998,31.175599999999996
229.78539999999998,31.1182
230.01659999999998,31.059500000000003
230.24779999999998,31.0868
230.47899999999998,31.1161
230.7102,31.0834
230.9414,30.9854
231.1726,30.903400000000005
231.4038,30.9754
231.635,30.9834
231.8662,30.9428
232.0974,30.972199999999997
232.3286,31.018199999999997
232.5598,31.0782
232.791,31.1522
233.0222,31.142199999999995
233.2534,31.1062
233.4846,31.202199999999998
233.7158,31.2502
233.947,31.2502
234.1782,31.248200000000004
234.4094,31.298199999999998
234.6406,31.352900000000005
234.87179999999998,31.367600000000003
235.10299999999998,31.4343
235.33419999999998,31.519000000000005
235.56539999999998,31.583
235.79659999999998,31.505000000000003
236.02779999999998,31.353
236.259,31.289000000000005
236.4902,31.277000000000005
236.7214,31.1743
236.9526,31.0409
237.1838,30.9882
237.415,30.9295
237.6462,30.8548
237.8774,30.7694
238.1086,30.786
238.3398,30.8353
238.571,30.8226
238.8022,30.727899999999998
239.0334,30.697900000000004
239.2646,30.706599999999998
239.4958,30.606599999999997
239.727,30.414599999999997
239.9582,30.2466
240.1894,30.1286
240.42059999999998,29.964599999999997
240.65179999999998,29.8619
240.88299999999998,29.6952
241.11419999999998,29.535899999999998
241.34539999999998,29.4426
241.57659999999998,29.373900000000003
241.8078,29.2572
242.039,29.0805
242.2702,28.9338
242.5014,28.801800000000004
242.7326,28.6578
242.9638,28.4552
243.195,28.312600000000003
243.4262,28.2072
243.6574,28.0798
243.8886,27.889799999999997
244.1198,27.6378
244.351,27.3818
244.5822,27.253800000000002
244.8134,27.1478
245.0446,26.9658
245.2758,26.7404
245.507,26.617
245.7382,26.5517
245.96939999999998,26.4004
246.20059999999998,26.156399999999998
246.43179999999998,26.1224
246.66299999999998,26.2911
246.89419999999998,26.299799999999998
247.12539999999998,26.2185
247.3566,26.287200000000002
247.5878,26.4486
247.819,26.5006
248.0502,26.6166
248.2814,26.741899999999998
248.5126,26.9546
248.7438,27.0913
248.975,27.145300000000002
249.2062,27.259300000000003
249.4374,27.4173
249.6686,27.453300000000002
249.8998,27.473300000000002
250.131,27.5387
250.3622,27.502
250.5934,27.514
250.8246,27.557299999999998
251.0558,27.5786
251.287,27.567899999999998
251.51819999999998,27.5272
251.74939999999998,27.5019
251.98059999999998,27.553199999999997
252.21179999999998,27.579199999999997
252.44299999999998,27.5885
252.67419999999998,27.5952
252.9054,27.6459
253.1366,27.7246
253.3678,27.7853
253.599,27.921999999999997
253.8302,28.024700000000003
254.0614,28.124000000000002
254.2926,28.2207
254.5238,28.264
254.755,28.308
254.9862,28.374000000000002
255.2174,28.35
255.4486,28.336000000000002
255.6798,28.380000000000003
255.911,28.354000000000003
256.1422,28.32
256.3734,28.282
256.6046,28.26
256.83579999999995,28.24
257.067,28.169999999999998
257.29819999999995,28.062
257.5294,28.034
257.76059999999995,27.976
257.9918,27.833999999999996
258.22299999999996,27.701999999999998
258.4542,27.738
258.68539999999996,27.782
258.9166,27.674
259.14779999999996,27.6027
259.379,27.705399999999997
259.61019999999996,27.8707
259.8414,27.938
260.07259999999997,27.976
260.3038,28.145999999999997
260.53499999999997,28.3707
260.7662,28.461400000000005
260.99739999999997,28.653399999999998
261.22860000000003,28.9534
261.4598,29.2654
261.69100000000003,29.4274
261.9222,29.484799999999996
262.15340000000003,29.6402
262.3846,29.846899999999998
262.6158,29.9156
262.847,29.922199999999997
263.0782,29.846799999999995
263.3094,29.565499999999997
263.5406,29.310200000000002
263.7718,29.0742
264.003,28.8942
264.2342,28.6975
264.4654,28.364800000000002
264.6966,27.9548
264.9278,27.672800000000002
265.159,27.4495
265.3902,27.3002
265.6214,27.2255
265.8526,27.168799999999997
266.0838,27.100099999999998
266.315,26.9994
266.5462,27.0174
266.7774,27.0334
267.0086,26.9527
267.2398,26.82
267.471,26.77
267.7022,26.712
267.9334,26.5767
268.16459999999995,26.441399999999998
268.3958,26.415399999999998
268.62699999999995,26.3774
268.8582,26.262099999999997
269.08939999999996,26.212799999999998
269.3206,26.2435
269.55179999999996,26.1822
269.783,25.9515
270.01419999999996,25.7248
270.2454,25.690800000000003
270.47659999999996,25.5348
270.7078,25.2681
270.93899999999996,25.0774
271.1702,24.95
271.40139999999997,24.8166
271.6326,24.708599999999997
271.86379999999997,24.6386
272.095,24.7986
272.3262,25.0226
272.55740000000003,25.1899
272.7886,25.3992
273.01980000000003,25.508599999999998
273.251,25.57
273.4822,25.601999999999997
273.7134,25.5727
273.9446,25.5607
274.1758,25.6033
274.407,25.493299999999998
274.6382,25.3213
274.8694,25.081300000000002
275.1006,24.959300000000002
275.3318,24.960600000000003
275.563,24.9359
275.7942,24.880599999999998
276.0254,24.9506
276.2566,25.0959
276.4878,25.238599999999998
276.719,25.3073
276.9502,25.416000000000004
277.1814,25.592
277.4126,25.670000000000005
277.6438,25.727999999999998
277.875,25.8573
278.1062,26.014599999999994
