Wavelength,Transmittance,Absorbance
79.9678,0.9265970080043878,0.03310910647398397
80.199,0.9303970095385407,0.03133169417706859
80.4302,0.9327178428202586,0.03024971513779957
80.6614,0.9327529219893187,0.030233381791984957
80.8926,0.9326056219273329,0.03030197086237686
81.1238,0.9317309063565528,0.030709498331518228
81.355,0.9307345331585585,0.031174172106296156
81.5862,0.9303631724972035,0.0313474890553986
81.8174,0.9266338006430536,0.03309186216758163
82.0486,0.9216591623701653,0.03542965515977252
82.2798,0.9159621724627695,0.03812246151763815
82.511,0.9106949273648889,0.04062708246837887
82.7422,0.9075033564234621,0.04215176004006705
82.9734,0.9049785063836749,0.04336173534707853
83.2046,0.9008775887711832,0.04533421693758045
83.4358,0.8965140146681224,0.047442916982492415
83.667,0.8935696265317224,0.04887160181484649
83.8982,0.889879477025607,0.050668809093430266
84.1294,0.8879179822992826,0.0516271485005721
84.3606,0.8886500240461533,0.05126924302434337
84.5918,0.8909469964166249,0.05014813193224661
84.82300000000001,0.8920351810921863,0.049618017089229485
85.0542,0.8922964479818665,0.04949083583272515
85.2854,0.8920178527662759,0.049626453605612034
85.5166,0.8931940561250907,0.04905417565955991
85.7478,0.8952157883153026,0.048072267054159096
85.979,0.8972199361111057,0.04710108501455838
86.2102,0.9000439977922066,0.04573625997031347
86.4414,0.9020637252955271,0.04476278112033327
86.6726,0.9030908978606993,0.04426853489960435
86.9038,0.9042206418169375,0.04372558298534759
87.135,0.9061414610632079,0.04280399772779501
87.36619999999999,0.9079126409017716,0.041955937161198664
87.5974,0.9096594740504662,0.04112115297341094
87.8286,0.9106325017659159,0.04065685316500426
88.0598,0.9127384361878937,0.03965366057664721
88.291,0.9140207192575248,0.03904395945520145
88.5222,0.9137187482580328,0.039187463868492596
88.7534,0.9152994293922284,0.0384368083818219
88.9846,0.9174410710879674,0.03742182170609566
89.2158,0.9185759641480742,0.0368849227047587
89.447,0.9180537816120177,0.03713187612647014
89.6782,0.9161187557403465,0.03804822543720221
89.9094,0.914623994461295,0.038757409422156885
90.1406,0.9151329601961823,0.03851580245323394
90.37180000000001,0.9139008503534767,0.03910091857699309
90.603,0.9111603028319426,0.04040520973293806
90.8342,0.9098199378068537,0.04104455026642667
91.0654,0.9086809275441603,0.04158858733127648
91.2966,0.9090198164575858,0.0414266491384581
91.5278,0.9107260426638971,0.04061224438000093
91.759,0.9130159142433629,0.03952165246806583
91.9902,0.9128465113802443,0.03960223984184564
92.2214,0.91,0.040958607678906384
92.4526,0.9074232373056529,0.0421901035090562
92.6838,0.9069007922481178,0.042440218712471306
92.91499999999999,0.9061016141832724,0.042823095916461
93.1462,0.9040158148453525,0.04382397191402672
93.3774,0.9013533223396621,0.045104936142126746
93.6086,0.8969418192027662,0.04723572687639226
93.8398,0.8930495789998179,0.04912442992630186
94.071,0.8909270312676921,0.050157864106213486
94.3022,0.8907234963073128,0.05025709132185826
94.5334,0.892400194133193,0.04944034391154667
94.7646,0.892671528341127,0.049308316779324235
94.9958,0.8915174552719943,0.04987014923108968
95.227,0.8929570984932714,0.049169405988506734
95.4582,0.8954992642451697,0.047934766637276985
95.6894,0.8981821631224022,0.046635573782803606
95.92060000000001,0.9003609320185664,0.0455833579372463
96.1518,0.8999008675716755,0.04580532949160536
96.383,0.8978208246454891,0.04681032550627937
96.6142,0.8962033431303174,0.04759344036010893
96.8454,0.8939859941668873,0.048669285123190506
97.0766,0.8935696588361431,0.04887158611418817
97.3078,0.8971014240097162,0.04715845394845285
97.539,0.9014324067312958,0.045066832983931805
97.7702,0.9038268550589182,0.043914758788587235
98.0014,0.9043761960402038,0.043650877180766046
98.23259999999999,0.9018823870194733,0.04485009438581904
98.46379999999999,0.8998368576177415,0.04583622195932784
98.695,0.8958915471052361,0.04774456103488601
98.9262,0.89193627327991,0.04966617382069226
99.1574,0.8914847420789695,0.049886085452860794
99.3886,0.8914164843180161,0.049919339082960694
99.6198,0.888767167132216,0.05121199749279759
99.851,0.8845716605765327,0.053266978432821334
100.0822,0.8786378177416567,0.056190108055608146
100.3134,0.8733189964157707,0.05882709297468013
100.5446,0.8728806260039706,0.05904514577051117
100.7758,0.8778091430487619,0.056599899960690474
101.007,0.8851754203634216,0.052970654108472924
101.2382,0.8904793789379865,0.050376133154287794
101.46940000000001,0.8917646452714514,0.04974974960009386
101.7006,0.8908840817517989,0.05017880093573505
101.9318,0.8898292008578716,0.050693346437655024
102.163,0.8905076517275442,0.05036234448959507
102.3942,0.8954396968509081,0.047963656276958366
102.6254,0.9008424590330331,0.04535115258909837
102.8566,0.9035191023178849,0.04406266109579924
103.0878,0.8981825044341541,0.04663540874970853
103.319,0.8894400246781669,0.05088333125569563
103.5502,0.8824615580293692,0.054304204353002844
103.78139999999999,0.8778692948181329,0.05657014100146271
104.01259999999999,0.8740683351711682,0.058454612642916765
104.2438,0.8692536937664854,0.06085345516987659
104.475,0.8667042014082103,0.06212909815867508
104.7062,0.8646239903915263,0.0631727184321234
104.9374,0.8627429511590339,0.06411858032420788
105.1686,0.8641586601357346,0.06340651342905008
105.3998,0.8694831472581039,0.06073883128489225
105.631,0.8787522980099567,0.05613352625463615
105.8622,0.8895866775346114,0.050811729714949475
106.0934,0.8993630221469469,0.046064972680543576
106.3246,0.9064122446227497,0.04267423626891509
106.5558,0.9114888221023395,0.04024865287739689
106.787,0.9126769420893988,0.039682921366244905
107.01820000000001,0.914094041007881,0.0390091222203709
107.2494,0.9159716729890965,0.038117956959605875
107.4806,0.9171384477412343,0.03756509993353078
107.7118,0.917736409627132,0.03728203806085401
107.943,0.9152500399551238,0.038460243487360685
108.1742,0.911525567719757,0.04023114515066712
108.4054,0.9085761359694761,0.04163867424919195
108.6366,0.9055581914849252,0.04308363653846184
108.8678,0.9035689959532682,0.04403867938671122
109.099,0.9036989660454129,0.0439762146110221
109.33019999999999,0.9042512725981563,0.04371087136151208
109.56139999999999,0.9025019420580339,0.04455185488027655
109.7926,0.9007683863885839,0.045386864342104434
110.0238,0.9021643964407454,0.0447143161591969
110.255,0.9037696292329381,0.04394225702801157
110.4862,0.9037147612099476,0.04396862392750019
110.7174,0.9027076074157616,0.04445289758150502
110.9486,0.9031676988165058,0.044231603054526204
111.1798,0.9049370964838134,0.043381608197481825
111.411,0.9054386045912601,0.043140992717351515
111.6422,0.9049006197749763,0.04339911433433131
111.8734,0.9062167661355723,0.04276790709525316
112.1046,0.904028739434566,0.04381776291020204
112.3358,0.8978524788391776,0.046795013988730184
112.56700000000001,0.8926252776148889,0.04933081884746966
112.79820000000001,0.8870070362947049,0.05207293505909323
113.0294,0.8827342326445656,0.054170031042254575
113.2606,0.8818252271576681,0.05461748108391529
113.4918,0.8812424910252015,0.05490457056248926
113.723,0.8789298581881037,0.05604578182875645
113.9542,0.8772489073578011,0.056877164040197346
114.1854,0.8754766688779966,0.05775542320995388
114.41659999999999,0.8710839240795791,0.05994000112455933
114.64779999999999,0.8644771019646811,0.06324650571231168
114.87899999999999,0.8594861933758275,0.06576109534557566
115.11019999999999,0.8602837149400787,0.06535829816008383
115.3414,0.8589875353092223,0.06601313813115522
115.5726,0.8531007568216648,0.06899967276272374
115.8038,0.847416797783689,0.07190293151692671
116.035,0.8418854560230845,0.07474699306219934
116.2662,0.8350244356890364,0.07830081537911349
116.4974,0.8318273174398274,0.07996682138564497
116.7286,0.8323951126915452,0.07967047836108866
116.9598,0.8361501216880624,0.07771574269533754
117.191,0.8384365877645116,0.07652977816864305
117.4222,0.8380979767799616,0.07670520775680838
117.6534,0.8410445190633632,0.07518101505602953
117.8846,0.8458746542217874,0.07269398804014342
118.11580000000001,0.8477871325301961,0.07171317931479028
118.34700000000001,0.8503612458534265,0.07039654045973753
118.5782,0.8563850356694639,0.06733093010127683
118.8094,0.8574312066034064,0.06680071419018185
119.0406,0.8561529259856532,0.06744865473891946
119.2718,0.8564069237373763,0.06731983025104438
119.503,0.8594441069835426,0.06578236192972094
119.7342,0.8634776392415695,0.063748904511968
119.96539999999999,0.8667762178639897,0.06209301312532653
120.19659999999999,0.866997035599881,0.061982387442837926
120.42779999999999,0.8684925645275113,0.061233895349864974
120.65899999999999,0.8714747236183316,0.059745204712650685
120.8902,0.8720843932989337,0.05944148551403966
121.1214,0.8756242054288795,0.057682241463523104
121.3526,0.8812721468848695,0.054889955788876454
121.5838,0.8832250012915891,0.05392864594492669
121.815,0.8830731891640505,0.054003300575492026
122.0462,0.881702490725248,0.05467793236559811
122.2774,0.8794022891295914,0.055812408223867724
122.5086,0.8806189398039059,0.05521197824071053
122.7398,0.8823942110141095,0.054337349766500266
122.971,0.8850336895674301,0.05304019719510722
123.2022,0.8887730027223705,0.051209145951498315
123.4334,0.8894812398095853,0.05086320725751036
123.66460000000001,0.8874266385456283,0.05186753888323073
123.89580000000001,0.8864064488270205,0.05236709300395565
124.127,0.8848442869178414,0.05313314883017029
124.3582,0.8821055408197657,0.05447944995493232
124.5894,0.8804033763493223,0.055318300594986825
124.8206,0.8798355832720746,0.0555984777919704
125.0518,0.8796085909322267,0.05571053763748585
125.283,0.8783197884667729,0.05634733252156697
125.51419999999999,0.8749479232267253,0.058017795352915534
125.74539999999999,0.8713162921947575,0.05982416529092259
125.97659999999999,0.8708184759480389,0.06007236521068727
126.20779999999999,0.8720172708966414,0.059474913483911464
126.439,0.8733375811831645,0.05881785101832717
126.6702,0.8748645140844092,0.05805919879651119
126.9014,0.87677989511091,0.05710941727952574
127.1326,0.8791040105654019,0.055959738643738655
127.3638,0.880609922734225,0.05521642520803964
127.595,0.8796423232626226,0.05569388308885236
127.8262,0.8802065709944733,0.0554153936281199
128.0574,0.8834376053647024,0.05382411803350647
128.2886,0.8878102460177377,0.05167984718710196
128.5198,0.8911744009169017,0.05003729714813597
128.751,0.8929461261942653,0.049174742457858876
128.9822,0.8957914486966818,0.047793087684555084
129.2134,0.8985687547791906,0.046448686859066834
129.4446,0.8976727997460646,0.046881934111597315
129.67579999999998,0.8952444282519874,0.04805837323362041
129.90699999999998,0.8922531625838775,0.049511904016412464
130.13819999999998,0.8890038468658312,0.051096359762082724
130.36939999999998,0.8885401664924459,0.05132293511614681
130.6006,0.8894428636649264,0.05088194504158119
130.8318,0.8917981615173299,0.04973342730341277
131.063,0.8953998476770755,0.04798298383353331
131.2942,0.8965574971403126,0.04742185346370796
131.5254,0.8969115890083631,0.04725036442320324
131.7566,0.8975963821445532,0.046918906553403285
131.9878,0.8997160493190173,0.04589453241786519
132.219,0.900639026494083,0.04544923811502902
132.4502,0.9011689090268181,0.04519380016060421
132.6814,0.9019589216944799,0.044813241269207306
132.9126,0.9011029907591873,0.04522556888529535
133.1438,0.8993974607273508,0.046048342911790864
133.375,0.8909237872543474,0.05015944544745731
133.6062,0.8825439305190871,0.05426366746175442
133.8374,0.8726569956575404,0.05915642544133223
134.0686,0.865990789960859,0.062486726793792864
134.2998,0.8624726255270977,0.06425468033723143
134.531,0.8648731668648436,0.06304757689294646
134.7622,0.866807117847474,0.06207753109796379
134.9934,0.8620461489344458,0.06446948395360064
135.2246,0.8569232623530324,0.06705806749196595
135.4558,0.8510029827935937,0.07006891769622511
135.687,0.8535063748922788,0.06879323076459613
135.9182,0.8551944719560947,0.06793511510367885
136.1494,0.8567405609545988,0.06715067166367938
136.38060000000002,0.8605754846939617,0.06521102987068651
136.6118,0.8620239303105228,0.06448067772800914
136.843,0.8592447430633319,0.06588311623533487
137.0742,0.8591103108728956,0.06595106861628434
137.3054,0.861572032363637,0.0647084071883501
137.5366,0.8637939232385743,0.06358985552496162
137.7678,0.866496909765142,0.06223298179523413
137.999,0.8659381504608981,0.06251312631150593
138.2302,0.8684232330764768,0.06126856630704569
138.4614,0.8737278574502485,0.05862381726517321
138.6926,0.8739448368180773,0.05851597906076785
138.9238,0.8730898990379679,0.05894103619591317
139.155,0.873100374015715,0.05893582573849175
139.3862,0.8704608630566106,0.06025075049799801
139.6174,0.8697100893481887,0.06062549172500859
139.8486,0.8696720236473876,0.060644500456542426
140.0798,0.870839343777215,0.060061958134213035
140.311,0.8743659129632109,0.058306781639941574
140.54219999999998,0.8746047582631478,0.05818816421754281
140.77339999999998,0.8739707252938158,0.05850311434075204
141.00459999999998,0.8756544812317261,0.05766722544783936
141.23579999999998,0.8763646632020095,0.05731514239131151
141.46699999999998,0.8753006831521215,0.05784273257548808
141.69819999999999,0.8747826292291369,0.05809984943965157
141.9294,0.8758629497869375,0.05756384452567118
142.1606,0.8769638217239372,0.05701832265419489
142.3918,0.874067624880987,0.05845496556181244
142.623,0.870920945519799,0.060021264605072816
142.8542,0.868984665545876,0.06098788721942137
143.0854,0.8675997725458798,0.061680570514555076
143.3166,0.8679817776802107,0.061489392261299236
143.5478,0.868211909259543,0.06137426124066159
143.779,0.8684134004683124,0.06127348357719777
144.0102,0.8701513378359889,0.06040520775926955
144.2414,0.8711295398486008,0.05991725916189107
144.4726,0.8696626770259721,0.06064916797235023
144.7038,0.8739853493514664,0.05849584739894157
144.935,0.8789862322678929,0.056017927311790436
145.1662,0.8855781415378718,0.05277311155869308
145.3974,0.8888434264284436,0.05117473512309103
145.6286,0.8847411899225304,0.05318375328731696
145.8598,0.8820307870685078,0.054516255661134355
146.091,0.8845448573501236,0.05328013810117514
146.3222,0.8882372225626449,0.051471031190673686
146.5534,0.8863768621228008,0.052381589239679616
146.7846,0.886825432252691,0.052161860744029113
147.0158,0.8841332813264491,0.05348226102595516
147.247,0.87927523126148,0.05587516052548003
147.47820000000002,0.8739649420095307,0.05850598818616786
147.70940000000002,0.8694180673335704,0.06077133899940026
147.94060000000002,0.8684591340098827,0.06125061278575832
148.1718,0.8678069464152984,0.06157687785539062
148.403,0.8669049390903457,0.062028522699057884
148.6342,0.8631754238337463,0.0639009332988863
148.8654,0.8584035238143273,0.0663085082252642
149.0966,0.8521855548913123,0.06946583165183247
149.3278,0.8482411884240767,0.07148064313427631
149.559,0.8436023203207238,0.07386223440777555
149.7902,0.8385305343826919,0.07648111830242024
150.0214,0.8362951343198018,0.0776404299929309
150.2526,0.8366607263666814,0.0774506167230819
150.4838,0.8397473234076969,0.07585137174485138
150.715,0.8382542376515568,0.07662424239179315
150.94619999999998,0.8348773264609213,0.07837733332480444
151.17739999999998,0.8348544645241408,0.07838922602882266
151.40859999999998,0.8342358118474967,0.07871117081490002
151.63979999999998,0.8318375224168402,0.07996149343124156
151.87099999999998,0.8310673999490146,0.08036375330500761
152.10219999999998,0.8333832910520446,0.07915521119412446
152.33339999999998,0.8318897746170074,0.07993421390983459
152.56459999999998,0.8263654583121302,0.08282784441432649
152.79579999999999,0.8196570728720147,0.0863678092137167
153.027,0.8145941042005886,0.08905873753803592
153.2582,0.8098254524474962,0.09160857767406648
153.4894,0.8072376761436204,0.09299857650426784
153.7206,0.807450128096518,0.09288429223073444
153.9518,0.8101094925214557,0.09145627891860435
154.183,0.8132753795641348,0.08976237497795972
154.4142,0.8146513402726966,0.0890282236453909
154.6454,0.816682029828169,0.08794700046920231
154.8766,0.8183253970134167,0.08707397013439391
155.1078,0.8195358920193365,0.08643202151434702
155.339,0.8239267902737012,0.08411137567261665
155.5702,0.8293909297594829,0.08124071840164328
155.8014,0.8335821788337762,0.07905157873371146
156.0326,0.8360969580991109,0.07774335662106258
156.2638,0.835781449952707,0.07790727218806248
156.495,0.8343586205802823,0.07864724257201716
156.7262,0.8331638350956397,0.07926958961156365
156.9574,0.8337519089103584,0.07896315873861973
157.1886,0.834102253759562,0.07878070533182227
157.4198,0.8323971147085082,0.0796694338284372
157.651,0.8294525998944124,0.08120842723152182
157.8822,0.8281879618020236,0.08187108651288481
158.1134,0.8288653440470264,0.08151601840917053
158.3446,0.8330020780904445,0.07935391515733344
158.57580000000002,0.8355662271030736,0.07801912216132068
158.80700000000002,0.8344475142075956,0.07860097475090812
159.03820000000002,0.8331554742485454,0.07927394780358216
159.2694,0.8318516003902754,0.07995414351701104
159.5006,0.8358307566895693,0.07788165183944205
159.7318,0.8411712482882007,0.07511558016448341
159.963,0.8418755464705449,0.07475210502759083
160.1942,0.8386208042144729,0.07643436797171306
160.4254,0.8343008089969334,0.07867733529340003
160.6566,0.8294206178877045,0.08122517306705197
160.8878,0.8269638692864345,0.08251346470659236
161.119,0.828568972053197,0.08167133403360559
161.3502,0.8299355615213577,0.08095562613247469
161.5814,0.8315055593160852,0.08013484280979227
161.8126,0.8320467192909049,0.07985228745856741
162.04379999999998,0.8340052688526134,0.07883120568553713
162.27499999999998,0.839595714517238,0.07592978681934859
162.50619999999998,0.8480767983087029,0.07156481805993078
162.73739999999998,0.8558330585384737,0.06761094189561677
162.96859999999998,0.8608865418466956,0.06505408141132311
163.19979999999998,0.8646777194002874,0.06314573157159066
163.43099999999998,0.8716106524539369,0.05967747063127413
163.66219999999998,0.8787148027559176,0.05615205744867341
163.89339999999999,0.8848558793373531,0.05312745913886338
164.1246,0.8899288888453057,0.050644694946027684
164.3558,0.8912555284241906,0.04999776321954725
164.587,0.8913611000561756,0.04994632290811103
164.8182,0.8887217480212589,0.05123419202700566
165.0494,0.8880665906618455,0.05155446792332055
165.2806,0.8897989703358666,0.050708101147774375
165.5118,0.8920157786660243,0.04962746341874368
165.743,0.8892132877704072,0.05099405613696173
165.9742,0.8843105047757843,0.05339521594488141
166.2054,0.8795978127224485,0.05571585926094263
166.4366,0.8746213643310273,0.05817991837264801
166.6678,0.8758662621825049,0.057562202085610276
166.899,0.8797942054626107,0.05561890271821542
167.1302,0.8847546870827171,0.05317712796282002
167.3614,0.8851932504772114,0.052961906190416706
167.5926,0.8833720521959125,0.05385634491133448
167.8238,0.8819248219206074,0.054568433934587546
168.055,0.8826424985985835,0.05421516541986759
168.2862,0.8857801048456827,0.052674078457186566
168.5174,0.8844527054541753,0.05332538526350589
168.7486,0.8841929617428066,0.05345294644035402
168.9798,0.8848183811127167,0.05314586396330723
169.211,0.8857546265786719,0.05268657053038812
169.4422,0.8868078409612735,0.052170475603603265
169.67340000000002,0.8881190081165149,0.05152883477851787
169.90460000000002,0.8870344292447409,0.05205952318876697
170.1358,0.8856421252819978,0.0527417345611078
170.367,0.8812142977100388,0.05491846503216479
170.5982,0.8749226133644937,0.05803035849204592
170.8294,0.8732795905674798,0.05884668962682206
171.0606,0.8729231290545792,0.059023999246689655
171.2918,0.8702549271129667,0.06035350919631331
171.523,0.8652269226490161,0.06286997539106835
171.7542,0.8599098709739215,0.0655470657214566
171.9854,0.8550846011879835,0.06799091449820817
172.2166,0.8540562323692612,0.06851353375632818
172.4478,0.8550711150404046,0.06799776411946803
172.679,0.8570301317433726,0.06700390874210829
172.91019999999997,0.8577227250776023,0.06665308328242867
173.14139999999998,0.8573411807931018,0.0668463152425051
